TITLE	unfiltered tris buffer 200uL
DATA TYPE	
ORIGIN	JASCO
OWNER	
DATE	23/07/26
TIME	12:05:09
SPECTROMETER/DATA SYSTEM	JASCO Corp., J-810, Rev. 1.00
RESOLUTION	
DELTAX	-0.2
XUNITS	NANOMETERS
YUNITS	CD[mdeg]
Y2UNITS	HT[V]
Y3UNITS	ABSORBANCE
FIRSTX	400.0000
LASTX	250.0000
NPOINTS	751
FIRSTY	4.10723
MAXY	23.54475
MINY	3.58371
XYDATA
400.0000	4.10723	277.288	1.00242
399.8000	4.09245	277.17	1.00089
399.6000	4.05902	277.09	0.999864
399.4000	4.06421	276.997	0.998652
399.2000	4.04199	276.89	0.997258
399.0000	4.01151	276.778	0.995807
398.8000	3.98461	276.67	0.994412
398.6000	3.98172	276.548	0.992824
398.4000	3.99525	276.425	0.991237
398.2000	3.99448	276.311	0.989757
398.0000	3.98419	276.18	0.988059
397.8000	3.95535	276.084	0.986815
397.6000	3.96395	276.012	0.98587
397.4000	3.95752	275.918	0.984662
397.2000	3.92192	275.861	0.983921
397.0000	3.90638	275.825	0.983456
396.8000	3.8758	275.774	0.982791
396.6000	3.85366	275.766	0.982679
396.4000	3.8729	275.784	0.982916
396.2000	3.85427	275.776	0.982813
396.0000	3.86846	275.805	0.983194
395.8000	3.86215	275.845	0.983712
395.6000	3.83051	275.87	0.984037
395.4000	3.83971	275.917	0.984645
395.2000	3.82209	275.969	0.985315
395.0000	3.79169	276.006	0.9858
394.8000	3.78811	276.068	0.986603
394.6000	3.78644	276.142	0.987565
394.4000	3.77221	276.194	0.988233
394.2000	3.77546	276.25	0.988964
394.0000	3.78142	276.31	0.98974
393.8000	3.80189	276.311	0.989748
393.6000	3.79867	276.339	0.990114
393.4000	3.78708	276.379	0.990633
393.2000	3.78579	276.359	0.990377
393.0000	3.76968	276.394	0.99083
392.8000	3.77029	276.43	0.991302
392.6000	3.78021	276.432	0.99133
392.4000	3.77314	276.457	0.99165
392.2000	3.77081	276.48	0.991951
392.0000	3.78598	276.489	0.992066
391.8000	3.79828	276.526	0.992543
391.6000	3.8227	276.533	0.992634
391.4000	3.83417	276.534	0.992647
391.2000	3.82153	276.57	0.993111
391.0000	3.82829	276.586	0.993322
390.8000	3.83926	276.599	0.993493
390.6000	3.80739	276.629	0.993883
390.4000	3.81727	276.617	0.993729
390.2000	3.78745	276.654	0.994204
390.0000	3.77497	276.697	0.994754
389.8000	3.75773	276.694	0.994717
389.6000	3.72432	276.726	0.995133
389.4000	3.6989	276.739	0.995303
389.2000	3.7086	276.749	0.995439
389.0000	3.68101	276.782	0.995865
388.8000	3.64822	276.799	0.996082
388.6000	3.64945	276.814	0.996277
388.4000	3.65468	276.851	0.996758
388.2000	3.65962	276.837	0.996574
388.0000	3.6747	276.859	0.99686
387.8000	3.66091	276.875	0.997071
387.6000	3.69161	276.854	0.996793
387.4000	3.70564	276.878	0.997103
387.2000	3.68807	276.874	0.997051
387.0000	3.68219	276.86	0.996879
386.8000	3.6418	276.881	0.997153
386.6000	3.64326	276.859	0.996862
386.4000	3.60773	276.857	0.99684
386.2000	3.5852	276.867	0.996961
386.0000	3.58371	276.836	0.996566
385.8000	3.61814	276.85	0.996739
385.6000	3.63564	276.835	0.996553
385.4000	3.63662	276.811	0.996242
385.2000	3.64658	276.81	0.996229
385.0000	3.66442	276.759	0.995561
384.8000	3.6659	276.729	0.995174
384.6000	3.63618	276.694	0.994726
384.4000	3.6309	276.638	0.993993
384.2000	3.65393	276.632	0.993913
384.0000	3.6846	276.603	0.99354
383.8000	3.68456	276.564	0.993041
383.6000	3.66925	276.546	0.992803
383.4000	3.66838	276.499	0.99219
383.2000	3.6921	276.502	0.992224
383.0000	3.6934	276.477	0.991908
382.8000	3.6695	276.431	0.991311
382.6000	3.68042	276.426	0.991242
382.4000	3.6976	276.399	0.990896
382.2000	3.69789	276.379	0.99063
382.0000	3.71398	276.356	0.990339
381.8000	3.7261	276.308	0.989709
381.6000	3.70916	276.307	0.989699
381.4000	3.70458	276.264	0.989142
381.2000	3.69228	276.242	0.988863
381.0000	3.68154	276.225	0.988639
380.8000	3.6818	276.192	0.988206
380.6000	3.64581	276.197	0.988271
380.4000	3.6378	276.172	0.987944
380.2000	3.66349	276.155	0.987733
380.0000	3.66504	276.141	0.987549
379.8000	3.66256	276.109	0.987139
379.6000	3.68253	276.116	0.987227
379.4000	3.68891	276.091	0.986895
379.2000	3.7406	276.087	0.986843
379.0000	3.74184	276.089	0.986871
378.8000	3.7595	276.07	0.986634
378.6000	3.78821	276.084	0.986815
378.4000	3.78112	276.078	0.986737
378.2000	3.80061	276.091	0.986895
378.0000	3.81216	276.092	0.986919
377.8000	3.78674	276.079	0.986741
377.6000	3.78019	276.094	0.986938
377.4000	3.78133	276.089	0.986872
377.2000	3.785	276.118	0.98725
377.0000	3.78807	276.103	0.987058
376.8000	3.7929	276.103	0.987058
376.6000	3.80214	276.115	0.987216
376.4000	3.83307	276.116	0.987228
376.2000	3.84113	276.124	0.987326
376.0000	3.86327	276.114	0.987201
375.8000	3.86031	276.115	0.98721
375.6000	3.86242	276.116	0.98722
375.4000	3.86585	276.116	0.987227
375.2000	3.89922	276.118	0.987256
375.0000	3.87718	276.094	0.98694
374.8000	3.88917	276.119	0.987269
374.6000	3.86466	276.13	0.987407
374.4000	3.88091	276.156	0.98774
374.2000	3.89738	276.156	0.987747
374.0000	3.90309	276.157	0.987762
373.8000	3.89978	276.159	0.987776
373.6000	3.93538	276.153	0.987701
373.4000	3.93487	276.157	0.987752
373.2000	3.96075	276.139	0.987519
373.0000	3.95059	276.116	0.987219
372.8000	3.97093	276.097	0.98698
372.6000	3.92964	276.096	0.986964
372.4000	3.93095	276.086	0.986834
372.2000	3.93071	276.075	0.986689
372.0000	4.00599	276.064	0.986545
371.8000	4.03384	276.062	0.986526
371.6000	4.05457	276.085	0.986825
371.4000	4.07963	276.098	0.98699
371.2000	4.13835	276.101	0.987034
371.0000	4.14194	276.121	0.987292
370.8000	4.12106	276.156	0.987738
370.6000	4.10606	276.175	0.987987
370.4000	4.11259	276.193	0.988223
370.2000	4.12009	276.196	0.98826
370.0000	4.1212	276.211	0.98845
369.8000	4.13337	276.212	0.988466
369.6000	4.16251	276.226	0.988651
369.4000	4.17123	276.238	0.988803
369.2000	4.1828	276.248	0.988932
369.0000	4.19987	276.251	0.988979
368.8000	4.21809	276.251	0.988978
368.6000	4.23419	276.266	0.989167
368.4000	4.24348	276.29	0.989487
368.2000	4.27112	276.312	0.989766
368.0000	4.28369	276.329	0.989987
367.8000	4.27827	276.347	0.990217
367.6000	4.32703	276.38	0.990642
367.4000	4.32031	276.415	0.991108
367.2000	4.34217	276.448	0.991525
367.0000	4.35059	276.473	0.99186
366.8000	4.36741	276.478	0.991922
366.6000	4.39159	276.502	0.992229
366.4000	4.37534	276.506	0.99228
366.2000	4.38138	276.544	0.992779
366.0000	4.41435	276.548	0.992832
365.8000	4.47487	276.575	0.993175
365.6000	4.48635	276.599	0.993483
365.4000	4.52186	276.63	0.993893
365.2000	4.56333	276.66	0.994282
365.0000	4.62018	276.694	0.994727
364.8000	4.66854	276.725	0.995127
364.6000	4.68218	276.758	0.995547
364.4000	4.69373	276.766	0.995649
364.2000	4.72579	276.806	0.996169
364.0000	4.78174	276.827	0.996447
363.8000	4.7963	276.875	0.99707
363.6000	4.83651	276.889	0.997256
363.4000	4.85971	276.931	0.997801
363.2000	4.86056	276.962	0.998193
363.0000	4.87397	277.003	0.998723
362.8000	4.87873	277.026	0.999026
362.6000	4.88115	277.062	0.999495
362.4000	4.941	277.066	0.999553
362.2000	4.9798	277.097	0.999943
362.0000	5.04462	277.108	1.00009
361.8000	5.08363	277.143	1.00055
361.6000	5.16709	277.164	1.00082
361.4000	5.23506	277.202	1.00131
361.2000	5.26752	277.229	1.00166
361.0000	5.2842	277.285	1.00239
360.8000	5.30539	277.31	1.00271
360.6000	5.31398	277.361	1.00337
360.4000	5.3782	277.372	1.00351
360.2000	5.39447	277.42	1.00414
360.0000	5.40815	277.434	1.00433
359.8000	5.4561	277.479	1.0049
359.6000	5.51407	277.505	1.00524
359.4000	5.5676	277.545	1.00576
359.2000	5.63625	277.561	1.00596
359.0000	5.6576	277.586	1.00629
358.8000	5.7096	277.61	1.0066
358.6000	5.77147	277.632	1.00688
358.4000	5.81678	277.653	1.00716
358.2000	5.87219	277.686	1.00759
358.0000	5.91082	277.717	1.00799
357.8000	5.93267	277.768	1.00866
357.6000	5.95478	277.817	1.00929
357.4000	5.99767	277.843	1.00962
357.2000	6.07839	277.897	1.01034
357.0000	6.10828	277.914	1.01057
356.8000	6.16982	277.962	1.01115
356.6000	6.21975	277.979	1.01136
356.4000	6.28131	278.002	1.01164
356.2000	6.34505	278.026	1.01192
356.0000	6.37993	278.057	1.0123
355.8000	6.40287	278.1	1.01284
355.6000	6.46152	278.145	1.01338
355.4000	6.51201	278.186	1.01383
355.2000	6.5862	278.21	1.0141
355.0000	6.67748	278.274	1.01481
354.8000	6.70828	278.306	1.01517
354.6000	6.77123	278.366	1.01583
354.4000	6.83014	278.39	1.01611
354.2000	6.89696	278.426	1.01651
354.0000	6.94619	278.448	1.01675
353.8000	6.97419	278.488	1.01719
353.6000	7.01408	278.52	1.01755
353.4000	7.09717	278.538	1.01775
353.2000	7.16789	278.554	1.01794
353.0000	7.22849	278.572	1.01814
352.8000	7.31733	278.598	1.01843
352.6000	7.39894	278.627	1.01874
352.4000	7.50011	278.665	1.01917
352.2000	7.57345	278.696	1.01952
352.0000	7.65186	278.713	1.01971
351.8000	7.71239	278.737	1.01998
351.6000	7.76327	278.753	1.02015
351.4000	7.80963	278.787	1.02053
351.2000	7.85673	278.792	1.02059
351.0000	7.89357	278.805	1.02073
350.8000	7.93971	278.842	1.02115
350.6000	8.01038	278.857	1.02132
350.4000	8.08592	278.898	1.02177
350.2000	8.14159	278.934	1.02217
350.0000	8.23532	278.963	1.02249
349.8000	8.31159	279.003	1.02294
349.6000	8.39804	279.032	1.02326
349.4000	8.48966	279.051	1.02347
349.2000	8.55564	279.081	1.02381
349.0000	8.64326	279.091	1.02392
348.8000	8.72046	279.116	1.0242
348.6000	8.77599	279.135	1.02441
348.4000	8.89136	279.146	1.02453
348.2000	8.98046	279.149	1.02456
348.0000	9.06147	279.14	1.02446
347.8000	9.12324	279.15	1.02457
347.6000	9.20433	279.159	1.02467
347.4000	9.26626	279.159	1.02467
347.2000	9.35473	279.162	1.02471
347.0000	9.42677	279.172	1.02483
346.8000	9.52197	279.194	1.02506
346.6000	9.62363	279.215	1.0253
346.4000	9.73468	279.214	1.02529
346.2000	9.83644	279.219	1.02535
346.0000	9.94681	279.224	1.02541
345.8000	10.0077	279.216	1.02531
345.6000	10.0569	279.213	1.02528
345.4000	10.1101	279.194	1.02506
345.2000	10.1556	279.179	1.0249
345.0000	10.2511	279.174	1.02485
344.8000	10.343	279.153	1.02461
344.6000	10.4509	279.139	1.02446
344.4000	10.5392	279.144	1.02451
344.2000	10.6576	279.126	1.02431
344.0000	10.7591	279.136	1.02443
343.8000	10.8456	279.129	1.02435
343.6000	10.9388	279.123	1.02428
343.4000	11.0228	279.125	1.0243
343.2000	11.0876	279.119	1.02423
343.0000	11.1852	279.113	1.02416
342.8000	11.2871	279.104	1.02407
342.6000	11.3575	279.088	1.02389
342.4000	11.428	279.069	1.02368
342.2000	11.4768	279.065	1.02362
342.0000	11.5679	279.048	1.02344
341.8000	11.6758	279.029	1.02323
341.6000	11.7366	279.034	1.02328
341.4000	11.8134	279.018	1.0231
341.2000	11.8961	278.995	1.02285
341.0000	11.9795	278.98	1.02268
340.8000	12.0465	278.954	1.02239
340.6000	12.101	278.928	1.0221
340.4000	12.1392	278.92	1.02201
340.2000	12.1946	278.899	1.02178
340.0000	12.2368	278.892	1.0217
339.8000	12.2827	278.893	1.02171
339.6000	12.3443	278.884	1.02161
339.4000	12.4384	278.862	1.02136
339.2000	12.5046	278.85	1.02124
339.0000	12.6005	278.842	1.02115
338.8000	12.6681	278.824	1.02094
338.6000	12.7517	278.811	1.0208
338.4000	12.7919	278.798	1.02066
338.2000	12.8724	278.776	1.02041
338.0000	12.9096	278.767	1.02031
337.8000	12.9427	278.768	1.02032
337.6000	12.9643	278.744	1.02005
337.4000	12.9815	278.717	1.01976
337.2000	13.0278	278.719	1.01977
337.0000	13.057	278.72	1.01978
336.8000	13.0881	278.714	1.01972
336.6000	13.1247	278.716	1.01974
336.4000	13.202	278.708	1.01965
336.2000	13.2482	278.698	1.01954
336.0000	13.313	278.672	1.01926
335.8000	13.3419	278.652	1.01903
335.6000	13.3691	278.652	1.01902
335.4000	13.4336	278.633	1.01882
335.2000	13.469	278.628	1.01876
335.0000	13.4825	278.614	1.01861
334.8000	13.4934	278.619	1.01866
334.6000	13.543	278.617	1.01864
334.4000	13.6027	278.612	1.01858
334.2000	13.626	278.609	1.01855
334.0000	13.6587	278.596	1.01841
333.8000	13.7026	278.568	1.01809
333.6000	13.7337	278.551	1.0179
333.4000	13.7838	278.544	1.01783
333.2000	13.7972	278.526	1.01763
333.0000	13.8494	278.511	1.01745
332.8000	13.9025	278.498	1.01732
332.6000	13.9473	278.515	1.0175
332.4000	13.9662	278.518	1.01753
332.2000	14.0075	278.519	1.01754
332.0000	14.0587	278.51	1.01744
331.8000	14.0945	278.494	1.01727
331.6000	14.1219	278.485	1.01717
331.4000	14.1286	278.475	1.01706
331.2000	14.1529	278.47	1.017
331.0000	14.205	278.466	1.01695
330.8000	14.2263	278.467	1.01696
330.6000	14.2457	278.467	1.01696
330.4000	14.2476	278.465	1.01694
330.2000	14.2638	278.462	1.01691
330.0000	14.3157	278.44	1.01667
329.8000	14.3649	278.437	1.01663
329.6000	14.4073	278.413	1.01636
329.4000	14.4582	278.389	1.01609
329.2000	14.5097	278.4	1.01622
329.0000	14.5662	278.384	1.01604
328.8000	14.6021	278.385	1.01605
328.6000	14.6415	278.38	1.016
328.4000	14.7019	278.368	1.01586
328.2000	14.7574	278.368	1.01586
328.0000	14.7954	278.354	1.01571
327.8000	14.8541	278.337	1.01552
327.6000	14.9257	278.324	1.01537
327.4000	15.0103	278.308	1.01519
327.2000	15.0539	278.301	1.01512
327.0000	15.0849	278.288	1.01497
326.8000	15.1166	278.29	1.01499
326.6000	15.1648	278.284	1.01492
326.4000	15.1933	278.26	1.01465
326.2000	15.2132	278.24	1.01444
326.0000	15.2402	278.224	1.01426
325.8000	15.2836	278.202	1.01401
325.6000	15.3263	278.175	1.01371
325.4000	15.3831	278.143	1.01335
325.2000	15.462	278.117	1.01306
325.0000	15.4968	278.097	1.01283
324.8000	15.5401	278.073	1.01257
324.6000	15.5785	278.027	1.01203
324.4000	15.6389	277.989	1.01154
324.2000	15.6977	277.946	1.01096
324.0000	15.7331	277.897	1.01032
323.8000	15.7881	277.826	1.0094
323.6000	15.8902	277.746	1.00836
323.4000	15.9653	277.684	1.00757
323.2000	16.0575	277.635	1.00692
323.0000	16.1472	277.596	1.00642
322.8000	16.2151	277.556	1.0059
322.6000	16.2431	277.555	1.00589
322.4000	16.3002	277.573	1.00613
322.2000	16.3299	277.607	1.00656
322.0000	16.3789	277.63	1.00686
321.8000	16.3942	277.666	1.00733
321.6000	16.4236	277.712	1.00792
321.4000	16.4893	277.75	1.00842
321.2000	16.5628	277.768	1.00866
321.0000	16.6202	277.771	1.0087
320.8000	16.6711	277.769	1.00867
320.6000	16.7512	277.761	1.00855
320.4000	16.8253	277.752	1.00844
320.2000	16.9066	277.73	1.00816
320.0000	16.9471	277.711	1.00791
319.8000	17.0114	277.689	1.00763
319.6000	17.0716	277.682	1.00753
319.4000	17.1137	277.679	1.00749
319.2000	17.1555	277.67	1.00738
319.0000	17.1684	277.676	1.00745
318.8000	17.2032	277.663	1.00729
318.6000	17.2468	277.661	1.00726
318.4000	17.3264	277.661	1.00727
318.2000	17.3827	277.654	1.00717
318.0000	17.3958	277.648	1.0071
317.8000	17.4623	277.633	1.00691
317.6000	17.5312	277.626	1.00681
317.4000	17.582	277.62	1.00673
317.2000	17.6394	277.609	1.00659
317.0000	17.6544	277.597	1.00643
316.8000	17.7418	277.58	1.00621
316.6000	17.827	277.566	1.00603
316.4000	17.8729	277.546	1.00577
316.2000	17.9293	277.532	1.00559
316.0000	17.9864	277.526	1.00552
315.8000	18.0624	277.516	1.00538
315.6000	18.138	277.506	1.00525
315.4000	18.203	277.494	1.0051
315.2000	18.2729	277.484	1.00496
315.0000	18.3206	277.47	1.00478
314.8000	18.4148	277.454	1.00458
314.6000	18.445	277.431	1.00428
314.4000	18.4881	277.412	1.00404
314.2000	18.5442	277.386	1.0037
314.0000	18.5599	277.356	1.00331
313.8000	18.599	277.324	1.0029
313.6000	18.6544	277.285	1.00238
313.4000	18.699	277.249	1.00192
313.2000	18.7596	277.21	1.00141
313.0000	18.7989	277.181	1.00104
312.8000	18.8596	277.169	1.00088
312.6000	18.9338	277.176	1.00097
312.4000	18.9782	277.187	1.00111
312.2000	19.0029	277.212	1.00144
312.0000	19.0588	277.233	1.00171
311.8000	19.0991	277.275	1.00225
311.6000	19.1419	277.304	1.00263
311.4000	19.1951	277.341	1.00312
311.2000	19.2405	277.377	1.00357
311.0000	19.2896	277.408	1.00398
310.8000	19.364	277.465	1.00472
310.6000	19.4407	277.503	1.00522
310.4000	19.4819	277.535	1.00563
310.2000	19.5536	277.559	1.00594
310.0000	19.5892	277.571	1.00609
309.8000	19.6703	277.587	1.00631
309.6000	19.7072	277.601	1.00648
309.4000	19.7461	277.607	1.00657
309.2000	19.8085	277.621	1.00674
309.0000	19.8785	277.639	1.00698
308.8000	19.9351	277.66	1.00725
308.6000	19.9666	277.687	1.0076
308.4000	20.0055	277.715	1.00796
308.2000	20.0904	277.739	1.00827
308.0000	20.1393	277.775	1.00874
307.8000	20.1827	277.802	1.0091
307.6000	20.2229	277.831	1.00946
307.4000	20.2939	277.861	1.00986
307.2000	20.358	277.891	1.01024
307.0000	20.404	277.925	1.01068
306.8000	20.425	277.95	1.01103
306.6000	20.4719	277.977	1.01137
306.4000	20.5108	278.016	1.0119
306.2000	20.5571	278.066	1.01249
306.0000	20.5838	278.097	1.01283
305.8000	20.6441	278.135	1.01326
305.6000	20.6902	278.184	1.01381
305.4000	20.7614	278.247	1.01451
305.2000	20.8038	278.302	1.01512
305.0000	20.8203	278.345	1.0156
304.8000	20.8655	278.386	1.01607
304.6000	20.9233	278.445	1.01672
304.4000	20.9675	278.505	1.01739
304.2000	20.9937	278.555	1.01794
304.0000	21.038	278.609	1.01855
303.8000	21.0799	278.664	1.01916
303.6000	21.1436	278.716	1.01974
303.4000	21.1743	278.771	1.02035
303.2000	21.1968	278.824	1.02095
303.0000	21.2653	278.866	1.02142
302.8000	21.2785	278.928	1.0221
302.6000	21.2979	278.969	1.02256
302.4000	21.3559	279.018	1.0231
302.2000	21.4246	279.078	1.02377
302.0000	21.4567	279.132	1.02437
301.8000	21.4766	279.21	1.02524
301.6000	21.5026	279.27	1.02591
301.4000	21.5972	279.333	1.02662
301.2000	21.676	279.412	1.0275
301.0000	21.6961	279.478	1.02823
300.8000	21.7072	279.537	1.02889
300.6000	21.7715	279.594	1.02953
300.4000	21.8343	279.662	1.03027
300.2000	21.8726	279.737	1.03111
300.0000	21.8795	279.795	1.03176
299.8000	21.9145	279.854	1.03241
299.6000	21.9455	279.923	1.03318
299.4000	22.001	279.995	1.03398
299.2000	22.0155	280.057	1.03467
299.0000	22.0301	280.111	1.03527
298.8000	22.0564	280.165	1.03586
298.6000	22.0968	280.228	1.03657
298.4000	22.1364	280.277	1.03712
298.2000	22.1714	280.337	1.03778
298.0000	22.2395	280.39	1.03836
297.8000	22.3083	280.444	1.03896
297.6000	22.3616	280.49	1.03948
297.4000	22.4141	280.551	1.04015
297.2000	22.4436	280.593	1.04063
297.0000	22.4905	280.647	1.04123
296.8000	22.5258	280.7	1.04181
296.6000	22.5705	280.752	1.04239
296.4000	22.5819	280.801	1.04293
296.2000	22.6149	280.855	1.04353
296.0000	22.6568	280.907	1.04411
295.8000	22.6845	280.948	1.04456
295.6000	22.7003	280.986	1.04499
295.4000	22.7447	281.023	1.0454
295.2000	22.7885	281.057	1.04577
295.0000	22.8332	281.091	1.04615
294.8000	22.8679	281.124	1.04652
294.6000	22.8739	281.153	1.04683
294.4000	22.9266	281.186	1.0472
294.2000	22.9463	281.219	1.04757
294.0000	22.9927	281.257	1.048
293.8000	23.0103	281.293	1.04839
293.6000	23.0476	281.317	1.04865
293.4000	23.0705	281.329	1.04878
293.2000	23.0944	281.352	1.04904
293.0000	23.115	281.382	1.04937
292.8000	23.1755	281.401	1.04958
292.6000	23.1811	281.405	1.04963
292.4000	23.2297	281.413	1.04972
292.2000	23.232	281.407	1.04965
292.0000	23.2741	281.396	1.04953
291.8000	23.3113	281.354	1.04907
291.6000	23.3323	281.303	1.0485
291.4000	23.3125	281.224	1.04763
291.2000	23.317	281.161	1.04693
291.0000	23.2891	281.11	1.04636
290.8000	23.3045	281.117	1.04643
290.6000	23.3342	281.17	1.04702
290.4000	23.3615	281.273	1.04817
290.2000	23.4054	281.415	1.04974
290.0000	23.4602	281.595	1.05173
289.8000	23.5048	281.759	1.05355
289.6000	23.5399	281.914	1.05527
289.4000	23.5445	282.033	1.05659
289.2000	23.5448	282.127	1.05762
289.0000	23.5391	282.187	1.05829
288.8000	23.5258	282.229	1.05876
288.6000	23.5027	282.279	1.05931
288.4000	23.4818	282.334	1.05992
288.2000	23.4859	282.374	1.06036
288.0000	23.4871	282.414	1.0608
287.8000	23.4798	282.462	1.06133
287.6000	23.4612	282.507	1.06183
287.4000	23.4641	282.547	1.06228
287.2000	23.4363	282.589	1.06274
287.0000	23.4262	282.638	1.06328
286.8000	23.4158	282.692	1.06388
286.6000	23.4148	282.757	1.0646
286.4000	23.3977	282.813	1.06521
286.2000	23.3555	282.868	1.06582
286.0000	23.3439	282.924	1.06644
285.8000	23.3288	282.981	1.06707
285.6000	23.2902	283.039	1.06771
285.4000	23.2181	283.081	1.06817
285.2000	23.2036	283.128	1.0687
285.0000	23.1675	283.175	1.06922
284.8000	23.1217	283.231	1.06983
284.6000	23.0626	283.296	1.07055
284.4000	23.0254	283.352	1.07116
284.2000	22.9603	283.4	1.0717
284.0000	22.871	283.464	1.0724
283.8000	22.8195	283.524	1.07307
283.6000	22.7665	283.595	1.07385
283.4000	22.7008	283.639	1.07433
283.2000	22.6336	283.682	1.0748
283.0000	22.5611	283.739	1.07543
282.8000	22.4989	283.806	1.07617
282.6000	22.4653	283.853	1.07669
282.4000	22.3851	283.902	1.07723
282.2000	22.3035	283.962	1.0779
282.0000	22.2574	284.024	1.07858
281.8000	22.1709	284.1	1.07941
281.6000	22.1068	284.154	1.08001
281.4000	22.0681	284.207	1.0806
281.2000	21.9967	284.267	1.08126
281.0000	21.9693	284.316	1.08179
280.8000	21.8907	284.369	1.08238
280.6000	21.8191	284.43	1.08305
280.4000	21.7628	284.488	1.08369
280.2000	21.6647	284.542	1.08429
280.0000	21.5543	284.605	1.08498
279.8000	21.4646	284.669	1.08569
279.6000	21.3442	284.734	1.0864
279.4000	21.2528	284.782	1.08693
279.2000	21.156	284.832	1.08748
279.0000	21.061	284.906	1.0883
278.8000	20.9943	284.975	1.08905
278.6000	20.9116	285.039	1.08975
278.4000	20.827	285.091	1.09033
278.2000	20.7836	285.152	1.091
278.0000	20.7241	285.215	1.09169
277.8000	20.6537	285.292	1.09254
277.6000	20.579	285.353	1.0932
277.4000	20.4846	285.414	1.09388
277.2000	20.3833	285.482	1.09463
277.0000	20.2714	285.545	1.09531
276.8000	20.1735	285.606	1.09599
276.6000	20.0799	285.661	1.09659
276.4000	19.9674	285.699	1.09701
276.2000	19.8621	285.749	1.09755
276.0000	19.794	285.808	1.09821
275.8000	19.7207	285.863	1.09881
275.6000	19.623	285.925	1.09949
275.4000	19.5065	285.989	1.10019
275.2000	19.438	286.051	1.10087
275.0000	19.3872	286.104	1.10145
274.8000	19.2861	286.148	1.10193
274.6000	19.1924	286.193	1.10243
274.4000	19.1145	286.234	1.10289
274.2000	19.0523	286.276	1.10334
274.0000	18.9453	286.313	1.10375
273.8000	18.8252	286.365	1.10432
273.6000	18.6889	286.408	1.10478
273.4000	18.5896	286.457	1.10532
273.2000	18.4741	286.509	1.10589
273.0000	18.384	286.565	1.10651
272.8000	18.3085	286.609	1.107
272.6000	18.2355	286.666	1.10761
272.4000	18.1713	286.722	1.10823
272.2000	18.1035	286.774	1.1088
272.0000	18.0214	286.823	1.10933
271.8000	17.8976	286.87	1.10986
271.6000	17.7862	286.916	1.11036
271.4000	17.6966	286.975	1.111
271.2000	17.5992	287.016	1.11145
271.0000	17.5037	287.055	1.11188
270.8000	17.4221	287.109	1.11247
270.6000	17.3376	287.154	1.11296
270.4000	17.2896	287.215	1.11363
270.2000	17.212	287.289	1.11444
270.0000	17.1174	287.36	1.11522
269.8000	17.0172	287.447	1.11617
269.6000	16.9287	287.522	1.11699
269.4000	16.8307	287.595	1.11779
269.2000	16.7406	287.676	1.11867
269.0000	16.6302	287.754	1.11953
268.8000	16.5532	287.83	1.12036
268.6000	16.452	287.907	1.1212
268.4000	16.3765	287.992	1.12213
268.2000	16.331	288.081	1.12311
268.0000	16.2538	288.17	1.12408
267.8000	16.1975	288.266	1.12512
267.6000	16.1047	288.339	1.12592
267.4000	16.0535	288.413	1.12673
267.2000	16.0149	288.505	1.12773
267.0000	15.9167	288.591	1.12867
266.8000	15.8418	288.672	1.12955
266.6000	15.8084	288.771	1.13063
266.4000	15.7678	288.879	1.13181
266.2000	15.737	288.998	1.13311
266.0000	15.6504	289.102	1.13425
265.8000	15.5981	289.214	1.13547
265.6000	15.5644	289.335	1.13678
265.4000	15.5049	289.445	1.13798
265.2000	15.4947	289.54	1.13902
265.0000	15.4832	289.629	1.13999
264.8000	15.505	289.743	1.14123
264.6000	15.5177	289.836	1.14224
264.4000	15.5529	289.931	1.14328
264.2000	15.5675	290.033	1.14438
264.0000	15.5828	290.127	1.14541
263.8000	15.5217	290.213	1.14634
263.6000	15.4769	290.305	1.14735
263.4000	15.4164	290.394	1.14831
263.2000	15.4317	290.504	1.14951
263.0000	15.3843	290.609	1.15064
262.8000	15.3814	290.741	1.15208
262.6000	15.3956	290.869	1.15347
262.4000	15.4316	291.007	1.15497
262.2000	15.4728	291.137	1.15638
262.0000	15.5121	291.259	1.15771
261.8000	15.5107	291.38	1.15902
261.6000	15.5549	291.484	1.16015
261.4000	15.5936	291.587	1.16127
261.2000	15.6206	291.681	1.16228
261.0000	15.6467	291.789	1.16345
260.8000	15.6847	291.894	1.16459
260.6000	15.7268	292.011	1.16586
260.4000	15.8073	292.121	1.16704
260.2000	15.8394	292.245	1.16839
260.0000	15.9071	292.374	1.16979
259.8000	15.9475	292.507	1.17123
259.6000	15.9965	292.644	1.17271
259.4000	16.0688	292.785	1.17424
259.2000	16.1315	292.921	1.17571
259.0000	16.2034	293.056	1.17716
258.8000	16.3176	293.195	1.17867
258.6000	16.4132	293.318	1.18
258.4000	16.5387	293.438	1.18129
258.2000	16.6509	293.558	1.18259
258.0000	16.7203	293.669	1.18379
257.8000	16.8142	293.789	1.18508
257.6000	16.8868	293.912	1.18641
257.4000	16.9605	294.027	1.18765
257.2000	17.0578	294.146	1.18893
257.0000	17.158	294.264	1.19021
256.8000	17.242	294.388	1.19154
256.6000	17.3617	294.501	1.19276
256.4000	17.4533	294.624	1.19409
256.2000	17.571	294.753	1.19547
256.0000	17.6848	294.876	1.1968
255.8000	17.7449	295.005	1.19819
255.6000	17.8631	295.13	1.19953
255.4000	17.9806	295.253	1.20085
255.2000	18.1249	295.366	1.20207
255.0000	18.2337	295.465	1.20313
254.8000	18.3266	295.567	1.20424
254.6000	18.3977	295.664	1.20527
254.4000	18.5173	295.773	1.20644
254.2000	18.5664	295.879	1.20758
254.0000	18.6177	295.983	1.2087
253.8000	18.6614	296.093	1.20989
253.6000	18.7552	296.204	1.21108
253.4000	18.8474	296.301	1.21211
253.2000	18.9531	296.406	1.21325
253.0000	19.0488	296.504	1.21429
252.8000	19.1781	296.616	1.2155
252.6000	19.2781	296.732	1.21674
252.4000	19.4426	296.844	1.21794
252.2000	19.53	296.966	1.21924
252.0000	19.6381	297.094	1.22061
251.8000	19.7221	297.214	1.2219
251.6000	19.8159	297.345	1.22331
251.4000	19.9113	297.45	1.22443
251.2000	19.9894	297.563	1.22565
251.0000	20.0547	297.672	1.22681
250.8000	20.1107	297.777	1.22793
250.6000	20.1955	297.899	1.22924
250.4000	20.2414	298.019	1.23052
250.2000	20.3107	298.141	1.23182
250.0000	20.3956	298.272	1.23322
