TITLE	unfiltered tris buffer 200uL
DATA TYPE	
ORIGIN	JASCO
OWNER	
DATE	23/07/26
TIME	14:14:11
SPECTROMETER/DATA SYSTEM	JASCO Corp., J-810, Rev. 1.00
RESOLUTION	
DELTAX	-0.2
XUNITS	NANOMETERS
YUNITS	CD[mdeg]
Y2UNITS	HT[V]
Y3UNITS	ABSORBANCE
FIRSTX	400.0000
LASTX	250.0000
NPOINTS	751
FIRSTY	3.61054
MAXY	21.87782
MINY	3.29138
XYDATA
400.0000	3.61054	277.366	1.00343
399.8000	3.59221	277.275	1.00226
399.6000	3.54509	277.193	1.00119
399.4000	3.54511	277.091	0.999875
399.2000	3.5476	277.006	0.998764
399.0000	3.48981	276.925	0.99772
398.8000	3.45446	276.841	0.996627
398.6000	3.44972	276.731	0.995205
398.4000	3.50823	276.62	0.99376
398.2000	3.51168	276.481	0.991964
398.0000	3.46543	276.389	0.990768
397.8000	3.4507	276.314	0.989793
397.6000	3.47327	276.188	0.988164
397.4000	3.50222	276.124	0.987332
397.2000	3.54593	276.078	0.986738
397.0000	3.51228	276.006	0.985793
396.8000	3.45769	275.961	0.985218
396.6000	3.45644	275.916	0.984633
396.4000	3.46146	275.866	0.983977
396.2000	3.52468	275.897	0.984389
396.0000	3.48795	275.949	0.985063
395.8000	3.44864	275.988	0.985563
395.6000	3.38358	276.035	0.986169
395.4000	3.33653	276.087	0.986845
395.2000	3.31803	276.117	0.987235
395.0000	3.37816	276.214	0.98849
394.8000	3.39076	276.31	0.989744
394.6000	3.38473	276.365	0.99045
394.4000	3.36226	276.438	0.991407
394.2000	3.35024	276.509	0.992315
394.0000	3.37396	276.549	0.992843
393.8000	3.35773	276.602	0.993528
393.6000	3.38366	276.643	0.994057
393.4000	3.37481	276.593	0.993416
393.2000	3.38579	276.649	0.994142
393.0000	3.35987	276.687	0.994627
392.8000	3.33257	276.702	0.994831
392.6000	3.33792	276.742	0.99534
392.4000	3.30587	276.763	0.995619
392.2000	3.29244	276.758	0.995546
392.0000	3.31626	276.778	0.995807
391.8000	3.34325	276.805	0.996159
391.6000	3.36702	276.839	0.996608
391.4000	3.37084	276.918	0.997631
391.2000	3.30821	276.934	0.997837
391.0000	3.31854	276.958	0.998148
390.8000	3.30646	276.989	0.998544
390.6000	3.35653	276.988	0.998532
390.4000	3.3483	277.047	0.9993
390.2000	3.33664	277.11	1.00011
390.0000	3.29582	277.093	0.999891
389.8000	3.31354	277.138	1.00048
389.6000	3.29138	277.177	1.00099
389.4000	3.3247	277.196	1.00123
389.2000	3.34097	277.255	1.00199
389.0000	3.35716	277.258	1.00203
388.8000	3.38221	277.261	1.00208
388.6000	3.35821	277.302	1.00261
388.4000	3.35286	277.317	1.0028
388.2000	3.34564	277.376	1.00356
388.0000	3.3407	277.432	1.00429
387.8000	3.32938	277.395	1.00382
387.6000	3.36363	277.432	1.00429
387.4000	3.37539	277.439	1.00438
387.2000	3.34983	277.442	1.00443
387.0000	3.3749	277.504	1.00523
386.8000	3.36489	277.512	1.00533
386.6000	3.40377	277.536	1.00564
386.4000	3.41864	277.555	1.00589
386.2000	3.40453	277.51	1.0053
386.0000	3.37763	277.541	1.00571
385.8000	3.37337	277.576	1.00615
385.6000	3.38904	277.568	1.00606
385.4000	3.40608	277.583	1.00625
385.2000	3.41381	277.546	1.00577
385.0000	3.45969	277.527	1.00553
384.8000	3.48407	277.519	1.00542
384.6000	3.4857	277.432	1.0043
384.4000	3.4792	277.445	1.00446
384.2000	3.48811	277.406	1.00395
384.0000	3.52199	277.396	1.00383
383.8000	3.58943	277.399	1.00387
383.6000	3.59868	277.356	1.00331
383.4000	3.56811	277.357	1.00332
383.2000	3.54303	277.349	1.00322
383.0000	3.5577	277.309	1.0027
382.8000	3.55559	277.337	1.00306
382.6000	3.56058	277.318	1.00281
382.4000	3.56104	277.297	1.00254
382.2000	3.5505	277.309	1.0027
382.0000	3.58593	277.265	1.00213
381.8000	3.58136	277.298	1.00256
381.6000	3.58277	277.268	1.00217
381.4000	3.5739	277.274	1.00224
381.2000	3.60484	277.292	1.00247
381.0000	3.6335	277.234	1.00173
380.8000	3.64984	277.242	1.00183
380.6000	3.64017	277.216	1.0015
380.4000	3.69104	277.224	1.00159
380.2000	3.68061	277.264	1.00212
380.0000	3.70814	277.217	1.00151
379.8000	3.74095	277.235	1.00173
379.6000	3.71181	277.205	1.00135
379.4000	3.68577	277.206	1.00136
379.2000	3.66327	277.247	1.0019
379.0000	3.70014	277.24	1.0018
378.8000	3.69427	277.304	1.00264
378.6000	3.7275	277.312	1.00274
378.4000	3.75875	277.336	1.00305
378.2000	3.77741	277.329	1.00296
378.0000	3.80811	277.327	1.00293
377.8000	3.80544	277.385	1.00369
377.6000	3.83106	277.361	1.00337
377.4000	3.80887	277.395	1.00382
377.2000	3.825	277.399	1.00387
377.0000	3.85081	277.414	1.00406
376.8000	3.92555	277.477	1.00487
376.6000	3.96213	277.447	1.00448
376.4000	3.97888	277.514	1.00536
376.2000	3.97302	277.527	1.00553
376.0000	3.99291	277.56	1.00595
375.8000	4.00458	277.543	1.00574
375.6000	3.98031	277.515	1.00537
375.4000	3.99311	277.548	1.00579
375.2000	4.03749	277.547	1.00578
375.0000	4.00554	277.617	1.0067
374.8000	4.00055	277.643	1.00704
374.6000	4.00622	277.676	1.00746
374.4000	4.05341	277.691	1.00766
374.2000	4.06354	277.677	1.00747
374.0000	4.05348	277.732	1.00819
373.8000	4.09595	277.733	1.0082
373.6000	4.10146	277.796	1.00902
373.4000	4.17064	277.76	1.00855
373.2000	4.1924	277.782	1.00883
373.0000	4.22299	277.788	1.00891
372.8000	4.20619	277.812	1.00922
372.6000	4.20889	277.817	1.00929
372.4000	4.17596	277.782	1.00884
372.2000	4.17579	277.829	1.00944
372.0000	4.1982	277.804	1.00912
371.8000	4.23497	277.844	1.00963
371.6000	4.2207	277.809	1.00919
371.4000	4.19842	277.843	1.00963
371.2000	4.21997	277.877	1.01008
371.0000	4.23623	277.917	1.01056
370.8000	4.25972	277.932	1.01074
370.6000	4.24305	277.936	1.01079
370.4000	4.26515	278.027	1.01192
370.2000	4.29818	278.03	1.01197
370.0000	4.40134	278.084	1.01264
369.8000	4.43464	278.052	1.01224
369.6000	4.39027	278.091	1.01272
369.4000	4.34188	278.072	1.01248
369.2000	4.35896	278.103	1.01284
369.0000	4.36592	278.119	1.01302
368.8000	4.40613	278.16	1.01349
368.6000	4.37316	278.183	1.01377
368.4000	4.4023	278.182	1.01375
368.2000	4.42308	278.221	1.01422
368.0000	4.42174	278.237	1.0144
367.8000	4.44586	278.33	1.01544
367.6000	4.44309	278.343	1.01558
367.4000	4.49708	278.407	1.01629
367.2000	4.51893	278.397	1.01619
367.0000	4.57713	278.465	1.01695
366.8000	4.56101	278.494	1.01727
366.6000	4.58545	278.567	1.01807
366.4000	4.60887	278.566	1.01807
366.2000	4.61934	278.596	1.0184
366.0000	4.58886	278.592	1.01836
365.8000	4.61186	278.632	1.0188
365.6000	4.61854	278.644	1.01894
365.4000	4.68753	278.703	1.0196
365.2000	4.72515	278.73	1.0199
365.0000	4.74687	278.769	1.02033
364.8000	4.77262	278.797	1.02065
364.6000	4.75987	278.809	1.02077
364.4000	4.77037	278.88	1.02157
364.2000	4.79245	278.936	1.0222
364.0000	4.79293	278.987	1.02276
363.8000	4.81438	279.015	1.02307
363.6000	4.8056	279.065	1.02363
363.4000	4.83802	279.101	1.02403
363.2000	4.87513	279.154	1.02462
363.0000	4.9308	279.175	1.02486
362.8000	4.93333	279.204	1.02518
362.6000	4.9724	279.224	1.0254
362.4000	4.99409	279.259	1.02579
362.2000	5.01619	279.286	1.0261
362.0000	5.04528	279.323	1.0265
361.8000	5.05883	279.351	1.02681
361.6000	5.04033	279.403	1.02739
361.4000	5.0306	279.438	1.02778
361.2000	5.06728	279.505	1.02853
361.0000	5.0862	279.548	1.02901
360.8000	5.14351	279.594	1.02952
360.6000	5.17001	279.627	1.02988
360.4000	5.22719	279.64	1.03003
360.2000	5.27194	279.679	1.03046
360.0000	5.29179	279.699	1.03069
359.8000	5.34076	279.78	1.03159
359.6000	5.35403	279.792	1.03173
359.4000	5.35765	279.835	1.0322
359.2000	5.40875	279.849	1.03236
359.0000	5.43227	279.909	1.03302
358.8000	5.49439	279.93	1.03325
358.6000	5.53407	279.998	1.03402
358.4000	5.53527	280.048	1.03457
358.2000	5.53137	280.107	1.03522
358.0000	5.54277	280.167	1.03589
357.8000	5.57481	280.208	1.03634
357.6000	5.62199	280.238	1.03668
357.4000	5.6824	280.305	1.03743
357.2000	5.69695	280.323	1.03763
357.0000	5.69466	280.343	1.03785
356.8000	5.72375	280.384	1.0383
356.6000	5.76508	280.427	1.03878
356.4000	5.83267	280.519	1.03981
356.2000	5.82483	280.544	1.04008
356.0000	5.86599	280.559	1.04025
355.8000	5.90793	280.579	1.04047
355.6000	5.98685	280.624	1.04096
355.4000	6.00656	280.686	1.04166
355.2000	6.04294	280.761	1.04249
355.0000	6.08639	280.795	1.04287
354.8000	6.10357	280.83	1.04325
354.6000	6.15576	280.894	1.04396
354.4000	6.11946	280.928	1.04435
354.2000	6.17186	280.992	1.04506
354.0000	6.22377	281.019	1.04535
353.8000	6.26164	281.065	1.04586
353.6000	6.30477	281.094	1.04618
353.4000	6.31142	281.125	1.04652
353.2000	6.35109	281.166	1.04699
353.0000	6.46295	281.186	1.04721
352.8000	6.53155	281.205	1.04742
352.6000	6.54543	281.226	1.04765
352.4000	6.57313	281.268	1.04811
352.2000	6.56987	281.31	1.04858
352.0000	6.63067	281.359	1.04912
351.8000	6.63525	281.411	1.0497
351.6000	6.65973	281.459	1.05023
351.4000	6.69229	281.467	1.05032
351.2000	6.72655	281.492	1.05059
351.0000	6.77249	281.535	1.05107
350.8000	6.80422	281.569	1.05145
350.6000	6.84918	281.587	1.05164
350.4000	6.87838	281.609	1.05189
350.2000	6.96567	281.618	1.052
350.0000	7.02594	281.646	1.0523
349.8000	7.11663	281.685	1.05274
349.6000	7.17026	281.697	1.05287
349.4000	7.20331	281.745	1.0534
349.2000	7.1961	281.779	1.05377
349.0000	7.23573	281.829	1.05432
348.8000	7.34965	281.853	1.0546
348.6000	7.40198	281.836	1.0544
348.4000	7.46459	281.852	1.05458
348.2000	7.49923	281.855	1.05461
348.0000	7.54304	281.878	1.05487
347.8000	7.61067	281.897	1.05508
347.6000	7.68825	281.889	1.05499
347.4000	7.75806	281.911	1.05524
347.2000	7.85961	281.936	1.05551
347.0000	7.91434	281.969	1.05588
346.8000	7.94972	281.974	1.05593
346.6000	7.9926	281.953	1.0557
346.4000	8.04075	281.936	1.05551
346.2000	8.10365	281.932	1.05547
346.0000	8.16996	281.914	1.05527
345.8000	8.21131	281.925	1.05539
345.6000	8.29788	281.921	1.05535
345.4000	8.41615	281.933	1.05548
345.2000	8.48303	281.915	1.05528
345.0000	8.54105	281.867	1.05475
344.8000	8.61706	281.856	1.05462
344.6000	8.6257	281.859	1.05467
344.4000	8.66588	281.852	1.05458
344.2000	8.66922	281.854	1.05461
344.0000	8.72674	281.866	1.05474
343.8000	8.79007	281.861	1.05469
343.6000	8.88627	281.868	1.05476
343.4000	8.95373	281.866	1.05474
343.2000	9.01173	281.876	1.05485
343.0000	9.02863	281.862	1.0547
342.8000	9.03107	281.831	1.05435
342.6000	9.15535	281.783	1.05382
342.4000	9.2485	281.767	1.05365
342.2000	9.32199	281.755	1.05351
342.0000	9.34328	281.744	1.05339
341.8000	9.37918	281.764	1.0536
341.6000	9.41058	281.748	1.05343
341.4000	9.49384	281.717	1.05309
341.2000	9.52804	281.722	1.05314
341.0000	9.64197	281.691	1.0528
340.8000	9.6761	281.659	1.05245
340.6000	9.74236	281.639	1.05222
340.4000	9.76941	281.615	1.05196
340.2000	9.80265	281.582	1.05159
340.0000	9.89204	281.572	1.05148
339.8000	9.93854	281.569	1.05145
339.6000	10.0155	281.551	1.05124
339.4000	10.0496	281.549	1.05123
339.2000	10.0874	281.541	1.05114
339.0000	10.097	281.514	1.05084
338.8000	10.0958	281.501	1.0507
338.6000	10.1481	281.488	1.05055
338.4000	10.1876	281.455	1.05018
338.2000	10.2481	281.426	1.04987
338.0000	10.3115	281.437	1.04998
337.8000	10.3027	281.408	1.04967
337.6000	10.37	281.377	1.04932
337.4000	10.4397	281.363	1.04917
337.2000	10.4894	281.344	1.04896
337.0000	10.5269	281.331	1.04881
336.8000	10.5536	281.312	1.0486
336.6000	10.5676	281.308	1.04856
336.4000	10.6217	281.295	1.04842
336.2000	10.6432	281.278	1.04823
336.0000	10.6582	281.284	1.04829
335.8000	10.7323	281.265	1.04808
335.6000	10.7771	281.208	1.04744
335.4000	10.8453	281.177	1.0471
335.2000	10.8043	281.17	1.04703
335.0000	10.8176	281.173	1.04706
334.8000	10.8483	281.174	1.04707
334.6000	10.8597	281.167	1.04699
334.4000	10.9285	281.159	1.04691
334.2000	10.9809	281.137	1.04666
334.0000	11.0238	281.1	1.04625
333.8000	11.0285	281.09	1.04614
333.6000	11.0626	281.063	1.04584
333.4000	11.0747	281.023	1.04539
333.2000	11.1199	280.987	1.04499
333.0000	11.1502	280.982	1.04494
332.8000	11.1549	280.987	1.045
332.6000	11.1723	280.983	1.04496
332.4000	11.2526	280.977	1.04488
332.2000	11.2866	280.964	1.04474
332.0000	11.3307	280.942	1.0445
331.8000	11.3365	280.893	1.04396
331.6000	11.3947	280.853	1.04351
331.4000	11.3945	280.813	1.04306
331.2000	11.4223	280.808	1.04301
331.0000	11.4432	280.794	1.04286
330.8000	11.5673	280.794	1.04285
330.6000	11.5913	280.798	1.0429
330.4000	11.613	280.78	1.0427
330.2000	11.5835	280.749	1.04236
330.0000	11.6224	280.675	1.04154
329.8000	11.649	280.615	1.04086
329.6000	11.7037	280.539	1.04002
329.4000	11.7419	280.515	1.03975
329.2000	11.7908	280.481	1.03938
329.0000	11.8482	280.47	1.03926
328.8000	11.8973	280.468	1.03923
328.6000	11.9652	280.463	1.03918
328.4000	12.0208	280.476	1.03932
328.2000	12.0409	280.424	1.03875
328.0000	12.0705	280.406	1.03854
327.8000	12.1037	280.378	1.03823
327.6000	12.1914	280.342	1.03783
327.4000	12.2442	280.339	1.0378
327.2000	12.3013	280.284	1.0372
327.0000	12.2735	280.267	1.037
326.8000	12.3208	280.271	1.03704
326.6000	12.3963	280.242	1.03673
326.4000	12.4852	280.231	1.0366
326.2000	12.5009	280.187	1.03612
326.0000	12.5508	280.157	1.03579
325.8000	12.5896	280.107	1.03523
325.6000	12.6785	280.068	1.0348
325.4000	12.7355	280.029	1.03436
325.2000	12.7464	280.01	1.03415
325.0000	12.8203	279.982	1.03383
324.8000	12.8566	279.927	1.03323
324.6000	12.949	279.882	1.03273
324.4000	12.998	279.83	1.03214
324.2000	13.0345	279.762	1.03138
324.0000	13.1078	279.689	1.03057
323.8000	13.1389	279.618	1.02979
323.6000	13.2095	279.552	1.02905
323.4000	13.2319	279.48	1.02826
323.2000	13.3164	279.398	1.02734
323.0000	13.3545	279.326	1.02654
322.8000	13.3849	279.278	1.026
322.6000	13.4436	279.248	1.02567
322.4000	13.5331	279.219	1.02534
322.2000	13.6696	279.248	1.02567
322.0000	13.7131	279.305	1.0263
321.8000	13.7736	279.356	1.02687
321.6000	13.7606	279.379	1.02713
321.4000	13.8446	279.395	1.0273
321.2000	13.909	279.42	1.02758
321.0000	13.9788	279.44	1.02781
320.8000	14.0292	279.433	1.02773
320.6000	14.1087	279.404	1.02741
320.4000	14.2387	279.39	1.02725
320.2000	14.3115	279.369	1.02702
320.0000	14.3712	279.351	1.02682
319.8000	14.4088	279.313	1.02639
319.6000	14.4056	279.273	1.02595
319.4000	14.4801	279.247	1.02565
319.2000	14.5421	279.254	1.02574
319.0000	14.6509	279.258	1.02578
318.8000	14.7375	279.282	1.02605
318.6000	14.766	279.246	1.02565
318.4000	14.7926	279.203	1.02517
318.2000	14.8244	279.147	1.02454
318.0000	14.9133	279.118	1.02422
317.8000	15.0291	279.138	1.02445
317.6000	15.0908	279.152	1.0246
317.4000	15.1417	279.156	1.02465
317.2000	15.1797	279.14	1.02447
317.0000	15.2431	279.119	1.02423
316.8000	15.2952	279.076	1.02375
316.6000	15.3194	279.032	1.02326
316.4000	15.4168	278.963	1.0225
316.2000	15.4841	278.93	1.02213
316.0000	15.5971	278.917	1.02198
315.8000	15.6909	278.936	1.02219
315.6000	15.7689	278.944	1.02228
315.4000	15.8419	278.934	1.02217
315.2000	15.9261	278.932	1.02215
315.0000	15.9677	278.896	1.02175
314.8000	16.0341	278.864	1.02139
314.6000	16.0645	278.826	1.02097
314.4000	16.1372	278.801	1.02069
314.2000	16.2311	278.78	1.02046
314.0000	16.2818	278.76	1.02023
313.8000	16.3622	278.715	1.01973
313.6000	16.3751	278.686	1.01941
313.4000	16.4703	278.642	1.01892
313.2000	16.4639	278.585	1.01828
313.0000	16.5001	278.548	1.01787
312.8000	16.5588	278.523	1.01759
312.6000	16.6501	278.517	1.01752
312.4000	16.7962	278.548	1.01786
312.2000	16.8246	278.578	1.0182
312.0000	16.9184	278.621	1.01868
311.8000	16.9657	278.668	1.01921
311.6000	17.0103	278.668	1.01921
311.4000	17.0902	278.694	1.0195
311.2000	17.1396	278.709	1.01966
311.0000	17.2521	278.769	1.02034
310.8000	17.3337	278.822	1.02093
310.6000	17.4182	278.895	1.02173
310.4000	17.4941	278.948	1.02232
310.2000	17.534	278.976	1.02264
310.0000	17.5718	278.999	1.0229
309.8000	17.6077	279.042	1.02337
309.6000	17.7034	279.057	1.02354
309.4000	17.8017	279.084	1.02384
309.2000	17.8686	279.101	1.02403
309.0000	17.938	279.119	1.02424
308.8000	18.0146	279.155	1.02463
308.6000	18.1222	279.191	1.02504
308.4000	18.2117	279.242	1.0256
308.2000	18.2617	279.266	1.02586
308.0000	18.3615	279.273	1.02595
307.8000	18.4519	279.286	1.02609
307.6000	18.5014	279.343	1.02673
307.4000	18.5663	279.377	1.02711
307.2000	18.5982	279.426	1.02765
307.0000	18.6618	279.472	1.02816
306.8000	18.7094	279.533	1.02885
306.6000	18.7613	279.574	1.0293
306.4000	18.859	279.625	1.02987
306.2000	18.9285	279.656	1.03021
306.0000	18.9964	279.71	1.03082
305.8000	19.0912	279.777	1.03155
305.6000	19.1307	279.843	1.03229
305.4000	19.2286	279.907	1.033
305.2000	19.2673	279.983	1.03385
305.0000	19.3137	280.043	1.03452
304.8000	19.3479	280.082	1.03495
304.6000	19.416	280.108	1.03523
304.4000	19.5282	280.137	1.03556
304.2000	19.6529	280.223	1.03651
304.0000	19.6832	280.307	1.03745
303.8000	19.7534	280.398	1.03846
303.6000	19.8207	280.465	1.0392
303.4000	19.8882	280.534	1.03997
303.2000	19.9352	280.569	1.04036
303.0000	19.9738	280.636	1.0411
302.8000	20.0728	280.694	1.04175
302.6000	20.1425	280.757	1.04245
302.4000	20.1953	280.845	1.04342
302.2000	20.2247	280.92	1.04425
302.0000	20.2238	280.99	1.04503
301.8000	20.2484	281.059	1.04579
301.6000	20.3325	281.097	1.04622
301.4000	20.4149	281.177	1.0471
301.2000	20.5022	281.239	1.04779
301.0000	20.5596	281.316	1.04865
300.8000	20.5983	281.38	1.04936
300.6000	20.6441	281.424	1.04985
300.4000	20.6599	281.464	1.05028
300.2000	20.7033	281.504	1.05073
300.0000	20.7346	281.569	1.05145
299.8000	20.8032	281.636	1.0522
299.6000	20.8307	281.713	1.05304
299.4000	20.8637	281.786	1.05385
299.2000	20.9311	281.84	1.05445
299.0000	20.9668	281.901	1.05512
298.8000	20.9627	281.964	1.05582
298.6000	20.9774	282.029	1.05654
298.4000	21.0599	282.141	1.05778
298.2000	21.1327	282.191	1.05833
298.0000	21.2134	282.232	1.05879
297.8000	21.2062	282.236	1.05884
297.6000	21.2441	282.259	1.05909
297.4000	21.2422	282.271	1.05922
297.2000	21.302	282.312	1.05968
297.0000	21.3335	282.361	1.06022
296.8000	21.3561	282.404	1.06069
296.6000	21.3702	282.433	1.06101
296.4000	21.3619	282.483	1.06156
296.2000	21.3945	282.505	1.06181
296.0000	21.4491	282.552	1.06233
295.8000	21.5129	282.628	1.06317
295.6000	21.5525	282.684	1.06379
295.4000	21.5565	282.73	1.06429
295.2000	21.5579	282.739	1.0644
295.0000	21.5505	282.748	1.06449
294.8000	21.6193	282.764	1.06467
294.6000	21.6158	282.792	1.06498
294.4000	21.6551	282.828	1.06538
294.2000	21.6654	282.85	1.06563
294.0000	21.722	282.889	1.06606
293.8000	21.7283	282.921	1.06641
293.6000	21.7716	282.958	1.06682
293.4000	21.7802	282.982	1.06708
293.2000	21.7724	282.986	1.06712
293.0000	21.7618	282.987	1.06714
292.8000	21.7745	282.988	1.06715
292.6000	21.7655	283	1.06728
292.4000	21.8381	283.006	1.06734
292.2000	21.8525	283.002	1.06731
292.0000	21.8778	282.978	1.06704
291.8000	21.839	282.918	1.06637
291.6000	21.8227	282.832	1.06542
291.4000	21.8141	282.701	1.06397
291.2000	21.8458	282.59	1.06275
291.0000	21.8617	282.456	1.06126
290.8000	21.834	282.386	1.0605
290.6000	21.8277	282.358	1.06019
290.4000	21.8251	282.486	1.06159
290.2000	21.8674	282.697	1.06394
290.0000	21.8737	282.948	1.06671
289.8000	21.8726	283.161	1.06906
289.6000	21.8417	283.302	1.07062
289.4000	21.8593	283.374	1.07141
289.2000	21.8115	283.429	1.07201
289.0000	21.8328	283.438	1.07211
288.8000	21.8139	283.464	1.07241
288.6000	21.7885	283.471	1.07248
288.4000	21.7724	283.519	1.07301
288.2000	21.7322	283.569	1.07356
288.0000	21.7133	283.605	1.07396
287.8000	21.7532	283.606	1.07397
287.6000	21.7325	283.626	1.0742
287.4000	21.7018	283.621	1.07414
287.2000	21.6283	283.663	1.0746
287.0000	21.606	283.684	1.07483
286.8000	21.5818	283.725	1.07528
286.6000	21.5988	283.746	1.07552
286.4000	21.555	283.751	1.07557
286.2000	21.5432	283.771	1.07579
286.0000	21.4556	283.782	1.07591
285.8000	21.392	283.832	1.07646
285.6000	21.3346	283.843	1.07658
285.4000	21.3312	283.854	1.0767
285.2000	21.29	283.854	1.07671
285.0000	21.2612	283.844	1.0766
284.8000	21.1803	283.876	1.07695
284.6000	21.1145	283.882	1.07702
284.4000	21.1024	283.911	1.07733
284.2000	21.0786	283.938	1.07763
284.0000	21.0294	283.937	1.07762
283.8000	20.9565	283.961	1.07788
283.6000	20.8843	283.932	1.07756
283.4000	20.8233	283.931	1.07755
283.2000	20.7584	283.944	1.0777
283.0000	20.6793	283.955	1.07782
282.8000	20.6013	283.957	1.07784
282.6000	20.5525	283.956	1.07783
282.4000	20.503	283.953	1.0778
282.2000	20.4215	283.966	1.07793
282.0000	20.3456	283.98	1.07809
281.8000	20.3236	283.989	1.07819
281.6000	20.2845	283.987	1.07817
281.4000	20.207	283.972	1.07801
281.2000	20.1252	283.993	1.07824
281.0000	20.0365	284	1.07831
280.8000	19.9449	284.003	1.07835
280.6000	19.8304	283.988	1.07819
280.4000	19.7214	283.995	1.07826
280.2000	19.677	284.032	1.07866
280.0000	19.6454	284.043	1.07879
279.8000	19.5911	284.049	1.07886
279.6000	19.4973	284.056	1.07893
279.4000	19.3901	284.091	1.07931
279.2000	19.3357	284.128	1.07973
279.0000	19.2926	284.143	1.0799
278.8000	19.2312	284.131	1.07976
278.6000	19.1213	284.152	1.07999
278.4000	19.0372	284.185	1.08035
278.2000	18.9258	284.222	1.08076
278.0000	18.8571	284.22	1.08074
277.8000	18.7781	284.215	1.08068
277.6000	18.6999	284.206	1.08058
277.4000	18.5968	284.234	1.0809
277.2000	18.5092	284.265	1.08124
277.0000	18.4358	284.303	1.08165
276.8000	18.373	284.321	1.08185
276.6000	18.2423	284.315	1.08178
276.4000	18.1545	284.308	1.08171
276.2000	18.1171	284.312	1.08176
276.0000	18.0321	284.328	1.08193
275.8000	17.9596	284.372	1.08242
275.6000	17.8263	284.419	1.08293
275.4000	17.7636	284.461	1.08339
275.2000	17.6896	284.483	1.08364
275.0000	17.6118	284.478	1.08358
274.8000	17.537	284.488	1.08369
274.6000	17.4884	284.489	1.0837
274.4000	17.4173	284.481	1.08361
274.2000	17.3744	284.474	1.08354
274.0000	17.2448	284.49	1.08371
273.8000	17.1618	284.518	1.08402
273.6000	17.0429	284.553	1.0844
273.4000	16.9291	284.57	1.08459
273.2000	16.8492	284.586	1.08477
273.0000	16.7547	284.608	1.08501
272.8000	16.6597	284.638	1.08534
272.6000	16.5931	284.657	1.08555
272.4000	16.4875	284.682	1.08582
272.2000	16.4616	284.71	1.08613
272.0000	16.3676	284.747	1.08654
271.8000	16.3087	284.783	1.08694
271.6000	16.2108	284.831	1.08747
271.4000	16.1465	284.876	1.08796
271.2000	16.0809	284.907	1.0883
271.0000	16.0189	284.981	1.08912
270.8000	15.9314	285.012	1.08946
270.6000	15.8572	285.043	1.0898
270.4000	15.7519	285.088	1.09029
270.2000	15.6263	285.144	1.09091
270.0000	15.5767	285.23	1.09185
269.8000	15.5063	285.309	1.09272
269.6000	15.4324	285.379	1.0935
269.4000	15.3937	285.462	1.0944
269.2000	15.3176	285.521	1.09505
269.0000	15.2875	285.583	1.09574
268.8000	15.2511	285.628	1.09623
268.6000	15.2083	285.694	1.09695
268.4000	15.1607	285.782	1.09792
268.2000	15.0558	285.859	1.09877
268.0000	14.9533	285.948	1.09974
267.8000	14.8257	286.04	1.10076
267.6000	14.754	286.14	1.10185
267.4000	14.7396	286.269	1.10326
267.2000	14.7036	286.343	1.10407
267.0000	14.6905	286.431	1.10504
266.8000	14.6077	286.509	1.10589
266.6000	14.5642	286.581	1.10668
266.4000	14.4922	286.671	1.10768
266.2000	14.4747	286.774	1.1088
266.0000	14.4362	286.915	1.11035
265.8000	14.4245	287.028	1.11158
265.6000	14.4173	287.132	1.11272
265.4000	14.3513	287.225	1.11374
265.2000	14.3158	287.317	1.11475
265.0000	14.2593	287.438	1.11607
264.8000	14.2489	287.551	1.11731
264.6000	14.2526	287.69	1.11882
264.4000	14.2336	287.826	1.12031
264.2000	14.2038	287.935	1.12151
264.0000	14.1658	288.035	1.1226
263.8000	14.1882	288.139	1.12373
263.6000	14.2192	288.212	1.12454
263.4000	14.2518	288.321	1.12573
263.2000	14.2783	288.427	1.12688
263.0000	14.2961	288.571	1.12845
262.8000	14.2919	288.715	1.13002
262.6000	14.2493	288.844	1.13143
262.4000	14.2768	289.022	1.13337
262.2000	14.2762	289.167	1.13495
262.0000	14.3572	289.253	1.13589
261.8000	14.356	289.312	1.13653
261.6000	14.397	289.357	1.13702
261.4000	14.427	289.442	1.13795
261.2000	14.4971	289.604	1.13971
261.0000	14.4898	289.717	1.14095
260.8000	14.5619	289.875	1.14267
260.6000	14.6277	290.015	1.14418
260.4000	14.6798	290.132	1.14546
260.2000	14.7413	290.262	1.14687
260.0000	14.798	290.405	1.14843
259.8000	14.8857	290.587	1.1504
259.6000	14.9515	290.748	1.15216
259.4000	14.9883	290.902	1.15383
259.2000	15.0197	291.083	1.1558
259.0000	15.0831	291.286	1.15799
258.8000	15.1937	291.483	1.16014
258.6000	15.2629	291.617	1.16159
258.4000	15.3403	291.755	1.16308
258.2000	15.4305	291.905	1.16471
258.0000	15.5498	292.05	1.16628
257.8000	15.6869	292.2	1.1679
257.6000	15.8091	292.311	1.16911
257.4000	15.8696	292.436	1.17046
257.2000	15.9978	292.605	1.17229
257.0000	16.0709	292.757	1.17393
256.8000	16.1506	292.905	1.17553
256.6000	16.2238	293.055	1.17715
256.4000	16.3182	293.202	1.17875
256.2000	16.3763	293.362	1.18047
256.0000	16.488	293.502	1.18198
255.8000	16.556	293.632	1.18339
255.6000	16.6367	293.766	1.18484
255.4000	16.7605	293.958	1.1869
255.2000	16.8537	294.109	1.18853
255.0000	17.0339	294.262	1.19019
254.8000	17.1162	294.385	1.19151
254.6000	17.1882	294.487	1.1926
254.4000	17.2481	294.625	1.19409
254.2000	17.3194	294.758	1.19553
254.0000	17.4033	294.917	1.19724
253.8000	17.4674	295.051	1.19868
253.6000	17.5665	295.184	1.20012
253.4000	17.6925	295.314	1.20151
253.2000	17.8275	295.443	1.2029
253.0000	17.8986	295.561	1.20417
252.8000	17.9884	295.689	1.20554
252.6000	18.0773	295.804	1.20678
252.4000	18.1583	295.912	1.20794
252.2000	18.2004	296.075	1.20969
252.0000	18.2503	296.237	1.21143
251.8000	18.353	296.396	1.21314
251.6000	18.4561	296.527	1.21454
251.4000	18.5396	296.645	1.2158
251.2000	18.592	296.806	1.21753
251.0000	18.7077	296.957	1.21915
250.8000	18.7937	297.11	1.22079
250.6000	18.8976	297.274	1.22255
250.4000	19.0024	297.42	1.22411
250.2000	19.0735	297.548	1.22548
250.0000	19.0938	297.665	1.22673
